N,tau
2,13.26
4,15.02
8,18.54
16,25.58
32,39.66
64,67.82
128,124.14
256,236.78
512,462.06
1024,912.62
2048,1813.74
4096,3615.98
8192,7220.46
16384,14429.42
32768,28847.34
65536,57683.18
131072,115354.86
262144,230698.22
524288,461384.94
1048576,922758.38
2097152,1845505.26
3200000,2816011.5
